3.3 334.8362720403023
3.3672807017543858 326.92695214105794
3.4345614035087717 316.6448362720403
3.5018421052631576 307.1536523929471
3.5691228070175436 294.49874055415614
3.6364035087719295 282.6347607052897
3.7036842105263155 273.14357682619647
3.7709649122807014 264.4433249370277
3.8382456140350873 255.74307304785896
3.9055263157894737 250.20654911838793
3.9728070175438592 235.9697732997481
4.040087719298246 225.6876574307305
4.107368421052631 219.36020151133502
4.1746491228070175 213.823677581864
4.241929824561403 206.7052896725441
4.309210526315789 197.21410579345087
4.376491228070176 192.46851385390428
4.443771929824561 186.1410579345088
4.511052631578947 181.39546599496222
4.578333333333333 174.27707808564233
4.6456140350877195 164.7858942065491
4.712894736842105 160.83123425692696
4.780175438596491 157.6675062972292
4.847456140350877 152.13098236775818
4.914736842105263 145.0125944584383
4.982017543859649 145.0125944584383
5.049298245614035 139.47607052896726
5.116578947368421 135.5214105793451
5.183859649122807 131.56675062972295
5.2511403508771926 126.03022670025189
5.318421052631579 116.53904282115869
5.385701754385964 111.00251889168766
5.452982456140351 107.04785894206549
5.520263157894737 103.09319899244332
5.587543859649123 103.09319899244332
5.654824561403508 99.13853904282117
5.722105263157895 96.76574307304786
5.789385964912281 94.39294710327455
5.8566666666666665 92.02015113350126
5.923947368421053 91.22921914357683
5.991228070175438 88.85642317380352
6.058508771929825 87.27455919395467
6.12578947368421 84.90176322418137
6.193070175438596 84.90176322418137
6.260350877192982 83.3198992443325
6.3276315789473685 80.9471032745592
6.394912280701755 78.57430730478589
6.529473684210526 77.78337531486147
6.596754385964912 77.78337531486147
6.664035087719299 76.99244332493703
6.731315789473684 74.61964735516372
6.7985964912280705 73.8287153652393
6.865877192982456 73.03778337531486
6.933157894736842 73.8287153652393
7.000438596491228 71.455919395466
7.067719298245613 72.24685138539043
7.135 71.455919395466
7.202280701754386 72.24685138539043
7.269561403508773 68.29219143576826
7.336842105263158 68.29219143576826
7.4041228070175436 67.50125944584383
7.47140350877193 66.7103274559194
7.538684210526315 68.29219143576826
7.605964912280702 66.7103274559194
7.673245614035087 66.7103274559194
7.740526315789474 64.3375314861461
7.80780701754386 64.3375314861461
7.875087719298246 65.12846347607052
7.942368421052632 63.54659949622166
8.009649122807017 63.54659949622166
8.076929824561404 61.17380352644836
8.144210526315788 58.80100755667506
8.211491228070177 57.2191435768262
8.278771929824561 58.01007556675063
8.346052631578946 56.42821158690176
8.413333333333334 57.2191435768262
8.480614035087719 56.42821158690176
8.547894736842107 55.637279596977336
8.615175438596491 54.84634760705289
8.682456140350876 54.84634760705289
8.749736842105264 54.84634760705289
8.817017543859649 54.84634760705289
8.884298245614035 54.05541561712846
8.951578947368422 53.26448362720403
9.018859649122806 53.26448362720403
9.086140350877193 52.4735516372796
9.153421052631579 53.26448362720403
9.220701754385965 50.89168765743074
9.287982456140352 51.68261964735517
9.355263157894736 49.30982367758186
9.422543859649123 50.10075566750629
9.489824561403509 50.89168765743074
9.557105263157895 48.51889168765743
9.691666666666666 47.727959697733
9.758947368421053 48.51889168765743
9.82622807017544 47.727959697733
9.893508771929824 48.51889168765743
9.960789473684212 46.93702770780857
10.028070175438597 46.14609571788413
10.095350877192981 47.727959697733
10.16263157894737 47.727959697733
10.229912280701754 46.14609571788413
10.297192982456142 45.3551637279597
10.364473684210527 46.14609571788413
10.431754385964911 46.14609571788413
10.4990350877193 44.56423173803526
10.566315789473684 44.56423173803526
10.63359649122807 44.56423173803526
10.700877192982457 44.56423173803526
10.768157894736841 45.3551637279597
10.835438596491228 43.77329974811083
10.902719298245614 42.9823677581864
10.97 42.9823677581864
11.037280701754385 43.77329974811083
11.104561403508772 42.9823677581864
11.171842105263158 42.9823677581864
11.239122807017544 42.19143576826197
11.306403508771929 42.9823677581864
11.373684210526317 41.40050377833753
11.440964912280702 42.9823677581864
11.508245614035086 42.19143576826197
11.575526315789475 41.40050377833753
11.64280701754386 41.40050377833753
11.710087719298244 41.40050377833753
11.777368421052632 40.6095717884131
11.844649122807017 40.6095717884131
11.911929824561405 40.6095717884131
11.97921052631579 40.6095717884131
12.046491228070174 39.81863979848867
12.113771929824562 39.81863979848867
12.181052631578947 39.81863979848867
12.248333333333335 39.81863979848867
12.31561403508772 40.6095717884131
12.382894736842104 40.6095717884131
12.450175438596492 39.81863979848867
12.517456140350877 38.2367758186398
12.584736842105265 39.81863979848867
12.65201754385965 39.02770780856423
12.719298245614034 39.02770780856423
12.786578947368422 38.2367758186398
12.921140350877192 39.02770780856423
12.98842105263158 38.2367758186398
13.055701754385964 38.2367758186398
13.122982456140353 38.2367758186398
13.190263157894737 38.2367758186398
13.257543859649122 38.2367758186398
13.32482456140351 38.2367758186398
13.392105263157895 38.2367758186398
13.45938596491228 37.44584382871537
13.526666666666667 38.2367758186398
13.593947368421052 36.65491183879093
13.66122807017544 37.44584382871537
13.728508771929825 36.65491183879093
13.795789473684213 35.8639798488665
13.863070175438597 36.65491183879093
13.930350877192982 37.44584382871537
13.997631578947367 35.8639798488665
14.064912280701755 35.8639798488665
14.13219298245614 35.8639798488665
14.199473684210528 37.44584382871537
14.266754385964912 36.65491183879093
14.3340350877193 37.44584382871537
14.401315789473685 37.44584382871537
14.46859649122807 38.2367758186398
14.535877192982458 37.44584382871537
14.603157894736842 36.65491183879093
14.670438596491227 37.44584382871537
14.737719298245615 36.65491183879093
14.805 36.65491183879093
14.872280701754384 37.44584382871537
14.939561403508772 35.8639798488665
15.006842105263157 35.07304785894206
15.074122807017545 36.65491183879093
15.14140350877193 35.8639798488665
15.208684210526318 36.65491183879093
15.275964912280703 35.8639798488665
15.343245614035087 35.8639798488665
15.410526315789472 35.07304785894206
15.47780701754386 35.8639798488665
15.545087719298245 35.07304785894206
15.612368421052633 35.8639798488665
15.679649122807017 36.65491183879093
15.746929824561406 36.65491183879093
15.81421052631579 35.07304785894206
15.881491228070175 35.07304785894206
15.948771929824563 35.8639798488665
16.083333333333332 34.28211586901763
16.15061403508772 35.07304785894206
16.217894736842105 35.07304785894206
16.285175438596493 35.8639798488665
16.352456140350878 35.8639798488665
16.419736842105262 34.28211586901763
16.48701754385965 35.07304785894206
16.554298245614035 35.07304785894206
16.621578947368423 35.07304785894206
16.688859649122808 35.07304785894206
16.756140350877192 35.8639798488665
16.823421052631577 34.28211586901763
16.890701754385965 34.28211586901763
16.95798245614035 35.07304785894206
17.025263157894738 34.28211586901763
17.092543859649123 34.28211586901763
17.15982456140351 35.07304785894206
17.227105263157895 35.07304785894206
17.294385964912284 34.28211586901763
17.361666666666665 34.28211586901763
17.428947368421053 34.28211586901763
17.496228070175437 34.28211586901763
17.563508771929826 34.28211586901763
17.63078947368421 34.28211586901763
17.6980701754386 34.28211586901763
17.765350877192983 34.28211586901763
17.832631578947368 34.28211586901763
17.899912280701756 33.4911838790932
17.96719298245614 34.28211586901763
18.034473684210525 33.4911838790932
18.101754385964913 35.07304785894206
18.169035087719298 33.4911838790932
18.236315789473686 34.28211586901763
18.30359649122807 33.4911838790932
18.370877192982455 33.4911838790932
18.438157894736843 34.28211586901763
18.505438596491228 33.4911838790932
18.572719298245616 33.4911838790932
18.64 32.70025188916877
18.70728070175439 33.4911838790932
18.77456140350877 33.4911838790932
18.841842105263158 33.4911838790932
18.909122807017543 32.70025188916877
18.97640350877193 33.4911838790932
19.043684210526315 32.70025188916877
19.110964912280703 33.4911838790932
19.178245614035088 32.70025188916877
19.31280701754386 33.4911838790932
19.38008771929825 32.70025188916877
19.447368421052634 33.4911838790932
19.51464912280702 33.4911838790932
19.581929824561403 32.70025188916877
19.64921052631579 32.70025188916877
19.716491228070176 32.70025188916877
19.783771929824564 32.70025188916877
19.85105263157895 33.4911838790932
19.918333333333337 34.28211586901763
19.98561403508772 33.4911838790932
20.05289473684211 31.909319899244334
20.12017543859649 32.70025188916877
20.18745614035088 33.4911838790932
20.254736842105263 32.70025188916877
20.32201754385965 35.07304785894206
20.389298245614036 34.28211586901763
20.456578947368424 34.28211586901763
20.52385964912281 33.4911838790932
20.591140350877193 34.28211586901763
20.65842105263158 34.28211586901763
20.725701754385966 35.07304785894206
20.79298245614035 33.4911838790932
20.86026315789474 32.70025188916877
20.927543859649123 33.4911838790932
20.994824561403508 34.28211586901763
21.062105263157896 33.4911838790932
21.12938596491228 32.70025188916877
21.19666666666667 32.70025188916877
21.263947368421054 32.70025188916877
21.33122807017544 33.4911838790932
21.398508771929826 31.909319899244334
21.46578947368421 31.909319899244334
21.533070175438596 30.327455919395465
21.600350877192984 31.1183879093199
21.66763157894737 31.909319899244334
21.734912280701757 31.1183879093199
21.80219298245614 31.1183879093199
21.86947368421053 30.327455919395465
21.936754385964914 31.1183879093199
22.004035087719302 30.327455919395465
22.071315789473687 30.327455919395465
22.13859649122807 30.327455919395465
22.205877192982456 31.1183879093199
22.273157894736844 31.1183879093199
22.34043859649123 30.327455919395465
22.407719298245617 30.327455919395465
22.542280701754386 29.53652392947103
22.609561403508774 30.327455919395465
22.67684210526316 30.327455919395465
22.744122807017547 29.53652392947103
22.81140350877193 29.53652392947103
22.87868421052632 29.53652392947103
22.945964912280704 29.53652392947103
23.013245614035093 30.327455919395465
23.080526315789477 29.53652392947103
23.14780701754386 29.53652392947103
23.215087719298246 29.53652392947103
23.28236842105263 29.53652392947103
23.34964912280702 29.53652392947103
23.416929824561404 29.53652392947103
23.48421052631579 29.53652392947103
23.551491228070176 29.53652392947103
23.61877192982456 29.53652392947103
23.68605263157895 29.53652392947103
23.753333333333334 29.53652392947103
23.820614035087722 28.7455919395466
23.887894736842107 29.53652392947103
23.955175438596495 29.53652392947103
24.02245614035088 28.7455919395466
24.089736842105264 27.954659949622165
24.157017543859652 28.7455919395466
24.224298245614037 29.53652392947103
24.291578947368425 28.7455919395466
24.35885964912281 28.7455919395466
24.426140350877198 29.53652392947103
24.493421052631582 28.7455919395466
24.560701754385963 28.7455919395466
24.62798245614035 29.53652392947103
24.695263157894736 28.7455919395466
24.762543859649124 28.7455919395466
24.82982456140351 28.7455919395466
24.897105263157894 28.7455919395466
24.96438596491228 28.7455919395466
25.031666666666666 28.7455919395466
25.098947368421054 28.7455919395466
25.16622807017544 28.7455919395466
25.233508771929827 28.7455919395466
25.300789473684212 28.7455919395466
25.3680701754386 28.7455919395466
25.435350877192985 28.7455919395466
25.50263157894737 28.7455919395466
25.569912280701757 28.7455919395466
25.70447368421053 28.7455919395466
25.771754385964915 28.7455919395466
25.839035087719303 28.7455919395466
25.906315789473684 27.954659949622165
25.97359649122807 27.954659949622165
26.040877192982457 28.7455919395466
26.10815789473684 28.7455919395466
26.17543859649123 27.954659949622165
26.242719298245614 27.954659949622165
26.310000000000002 27.954659949622165
26.377280701754387 27.954659949622165
26.44456140350877 27.954659949622165
26.51184210526316 27.954659949622165
26.579122807017544 27.954659949622165
26.646403508771932 27.954659949622165
26.713684210526317 27.954659949622165
26.780964912280705 27.954659949622165
26.84824561403509 27.954659949622165
26.915526315789478 28.7455919395466
26.982807017543863 27.954659949622165
27.050087719298247 27.954659949622165
27.117368421052635 28.7455919395466
27.18464912280702 27.163727959697734
27.251929824561408 28.7455919395466
27.31921052631579 27.954659949622165
27.386491228070174 27.954659949622165
27.453771929824562 27.954659949622165
27.521052631578947 27.954659949622165
27.588333333333335 27.954659949622165
27.65561403508772 27.163727959697734
27.722894736842107 27.954659949622165
27.790175438596492 28.7455919395466
27.85745614035088 27.163727959697734
27.924736842105265 27.954659949622165
27.99201754385965 28.7455919395466
28.059298245614038 27.954659949622165
28.126578947368422 27.954659949622165
28.19385964912281 28.7455919395466
28.261140350877195 27.954659949622165
28.328421052631583 27.954659949622165
28.395701754385968 27.954659949622165
28.462982456140352 27.954659949622165
28.53026315789474 27.954659949622165
28.597543859649125 27.954659949622165
28.66482456140351 28.7455919395466
28.732105263157894 28.7455919395466
28.79938596491228 27.954659949622165
28.93394736842105 27.163727959697734
29.00122807017544 27.954659949622165
29.068508771929825 27.954659949622165
29.135789473684213 27.954659949622165
29.203070175438597 28.7455919395466
29.270350877192985 29.53652392947103
29.33763157894737 27.954659949622165
29.404912280701755 28.7455919395466
29.472192982456143 27.954659949622165
29.539473684210527 27.954659949622165
29.606754385964916 28.7455919395466
29.6740350877193 27.954659949622165
29.74131578947369 28.7455919395466
29.808596491228073 28.7455919395466
29.87587719298246 28.7455919395466
29.943157894736846 28.7455919395466
30.010438596491227 27.954659949622165
30.077719298245615 27.954659949622165
30.145 27.954659949622165
30.212280701754388 28.7455919395466
30.279561403508772 28.7455919395466
30.346842105263157 28.7455919395466
30.414122807017545 27.954659949622165
30.48140350877193 27.954659949622165
30.548684210526318 27.954659949622165
30.615964912280702 29.53652392947103
30.68324561403509 28.7455919395466
30.750526315789475 28.7455919395466
30.817807017543863 27.954659949622165
30.885087719298248 27.954659949622165
30.952368421052633 28.7455919395466
31.01964912280702 27.954659949622165
31.086929824561405 27.954659949622165
31.154210526315794 28.7455919395466
31.221491228070178 27.954659949622165
31.288771929824566 27.954659949622165
31.35605263157895 28.7455919395466
31.423333333333332 27.954659949622165
31.49061403508772 27.954659949622165
31.557894736842105 27.954659949622165
31.625175438596493 27.163727959697734
31.692456140350878 27.954659949622165
31.759736842105266 27.954659949622165
31.82701754385965 27.954659949622165
31.894298245614035 27.954659949622165
31.961578947368423 27.163727959697734
32.09614035087719 27.163727959697734
32.16342105263158 27.954659949622165
32.23070175438597 27.954659949622165
32.29798245614035 27.954659949622165
32.36526315789474 27.954659949622165
32.43254385964912 27.954659949622165
32.49982456140351 27.954659949622165
32.5671052631579 27.163727959697734
32.63438596491228 27.954659949622165
32.70166666666667 27.954659949622165
32.76894736842105 27.954659949622165
32.83622807017544 28.7455919395466
32.90350877192982 27.954659949622165
32.970789473684206 27.954659949622165
33.0380701754386 27.954659949622165
33.10535087719298 28.7455919395466
33.17263157894737 27.954659949622165
33.23991228070175 27.163727959697734
33.30719298245614 27.954659949622165
33.37447368421053 27.954659949622165
33.44175438596491 27.954659949622165
33.5090350877193 27.954659949622165
33.57631578947368 27.954659949622165
33.643596491228074 28.7455919395466
33.71087719298246 27.954659949622165
33.77815789473684 27.954659949622165
33.84543859649123 27.954659949622165
33.91271929824561 27.954659949622165
33.980000000000004 27.954659949622165
34.04728070175439 27.954659949622165
34.11456140350877 27.954659949622165
34.18184210526316 28.7455919395466
34.24912280701754 28.7455919395466
34.31640350877193 28.7455919395466
34.38368421052631 27.954659949622165
34.4509649122807 29.53652392947103
34.51824561403509 27.954659949622165
34.58552631578947 27.954659949622165
34.65280701754386 27.954659949622165
34.72008771929825 28.7455919395466
34.78736842105263 28.7455919395466
34.85464912280702 27.954659949622165
34.9219298245614 28.7455919395466
34.98921052631579 29.53652392947103
35.05649122807018 27.954659949622165
35.123771929824564 28.7455919395466
35.19105263157895 28.7455919395466
35.32561403508772 28.7455919395466
35.3928947368421 29.53652392947103
35.460175438596494 28.7455919395466
35.52745614035087 29.53652392947103
35.59473684210526 28.7455919395466
35.66201754385965 29.53652392947103
35.72929824561403 28.7455919395466
35.79657894736842 28.7455919395466
35.8638596491228 29.53652392947103
35.93114035087719 30.327455919395465
35.99842105263158 28.7455919395466
36.06570175438596 30.327455919395465
36.13298245614035 29.53652392947103
36.20026315789474 30.327455919395465
36.26754385964912 30.327455919395465
36.33482456140351 31.1183879093199
36.40210526315789 31.1183879093199
36.46938596491228 31.1183879093199
36.53666666666667 30.327455919395465
36.60394736842105 31.1183879093199
36.67122807017544 31.1183879093199
36.73850877192982 31.909319899244334
36.805789473684214 32.70025188916877
36.87307017543859 31.909319899244334
36.94035087719298 31.909319899244334
37.00763157894737 31.909319899244334
37.07491228070175 32.70025188916877
37.14219298245614 32.70025188916877
37.20947368421052 33.4911838790932
37.27675438596491 33.4911838790932
37.3440350877193 33.4911838790932
37.41131578947368 33.4911838790932
37.47859649122807 34.28211586901763
37.54587719298245 35.07304785894206
37.613157894736844 36.65491183879093
37.68043859649123 35.8639798488665
37.74771929824561 35.07304785894206
37.815 37.44584382871537
37.88228070175438 36.65491183879093
37.949561403508774 36.65491183879093
38.01684210526316 38.2367758186398
38.08412280701754 38.2367758186398
38.15140350877193 39.81863979848867
38.21868421052632 38.2367758186398
38.2859649122807 39.81863979848867
38.35324561403508 40.6095717884131
38.48780701754386 42.19143576826197
38.55508771929824 42.9823677581864
38.62236842105263 44.56423173803526
38.68964912280701 45.3551637279597
38.756929824561404 45.3551637279597
38.82421052631579 46.14609571788413
38.89149122807017 47.727959697733
38.95877192982456 49.30982367758186
39.02605263157895 50.10075566750629
39.093333333333334 52.4735516372796
39.16061403508772 53.26448362720403
39.2278947368421 55.637279596977336
39.29517543859649 57.2191435768262
39.36245614035088 58.01007556675063
39.429736842105264 63.54659949622166
39.49701754385965 63.54659949622166
39.56429824561403 66.7103274559194
39.63157894736842 71.455919395466
39.6988596491228 72.24685138539043
39.76614035087719 76.20151133501258
39.83342105263158 78.57430730478589
39.90070175438596 84.11083123425692
39.96798245614035 88.85642317380352
40.03526315789473 92.81108312342569
40.102543859649124 97.55667506297229
40.16982456140351 104.6750629722922
40.23710526315789 111.00251889168766
40.30438596491228 120.49370277078086
40.37166666666666 126.03022670025189
40.438947368421054 133.14861460957178
40.50622807017544 140.26700251889167
40.57350877192982 148.176322418136
40.64078947368421 154.5037783375315
40.7080701754386 158.45843828715365
40.775350877192984 164.7858942065491
40.84263157894737 162.41309823677582
40.909912280701754 163.20403022670024
40.97719298245614 163.99496221662469
41.04447368421052 160.04030226700252
41.11175438596491 156.08564231738035
41.17903508771929 152.92191435768262
41.246315789473684 143.4307304785894
41.31359649122807 135.5214105793451
41.38087719298245 128.40302267002517
41.44815789473684 121.28463476070529
41.51543859649123 112.58438287153652
41.582719298245614 106.25692695214106
41.71728070175438 90.4382871536524
41.78456140350877 85.69269521410578
41.85184210526316 81.73803526448363
41.919122807017544 75.41057934508817
41.98640350877193 73.03778337531486
42.05368421052631 69.87405541561714
42.120964912280705 66.7103274559194
42.18824561403509 63.54659949622166
42.255526315789474 61.17380352644836
42.32280701754386 61.17380352644836
42.39008771929824 54.84634760705289
42.457368421052635 55.637279596977336
42.52464912280702 53.26448362720403
42.591929824561404 51.68261964735517
42.65921052631579 48.51889168765743
42.72649122807018 48.51889168765743
42.793771929824565 48.51889168765743
42.86105263157895 46.93702770780857
42.928333333333335 46.14609571788413
42.99561403508772 44.56423173803526
43.0628947368421 43.77329974811083
43.13017543859649 42.19143576826197
43.19745614035087 42.19143576826197
43.26473684210526 41.40050377833753
43.33201754385964 40.6095717884131
43.399298245614034 40.6095717884131
43.46657894736842 39.02770780856423
43.5338596491228 39.02770780856423
43.60114035087719 37.44584382871537
43.66842105263157 38.2367758186398
43.735701754385964 36.65491183879093
43.80298245614035 37.44584382871537
43.87026315789473 35.8639798488665
43.93754385964912 35.8639798488665
44.00482456140351 35.07304785894206
44.072105263157894 35.07304785894206
44.13938596491228 34.28211586901763
44.20666666666666 33.4911838790932
44.27394736842105 33.4911838790932
44.34122807017544 34.28211586901763
44.408508771929824 32.70025188916877
44.47578947368421 32.70025188916877
44.543070175438594 32.70025188916877
44.610350877192985 32.70025188916877
44.67763157894737 31.909319899244334
44.744912280701755 31.1183879093199
44.81219298245614 31.1183879093199
44.946754385964915 31.1183879093199
45.0140350877193 30.327455919395465
45.081315789473685 31.909319899244334
45.14859649122807 31.1183879093199
45.215877192982454 29.53652392947103
45.283157894736846 29.53652392947103
45.35043859649123 29.53652392947103
45.417719298245615 29.53652392947103
45.485 30.327455919395465
45.55228070175439 30.327455919395465
45.619561403508776 29.53652392947103
45.68684210526316 29.53652392947103
45.754122807017545 28.7455919395466
45.82140350877192 29.53652392947103
45.888684210526314 29.53652392947103
45.9559649122807 28.7455919395466
46.02324561403508 27.954659949622165
46.09052631578947 27.954659949622165
46.15780701754385 28.7455919395466
46.225087719298244 27.954659949622165
46.29236842105263 28.7455919395466
46.359649122807014 27.954659949622165
46.4269298245614 27.954659949622165
46.49421052631578 27.954659949622165
46.561491228070174 27.954659949622165
46.62877192982456 27.954659949622165
46.696052631578944 27.954659949622165
46.76333333333333 27.163727959697734
46.83061403508772 27.954659949622165
46.897894736842105 27.163727959697734
46.96517543859649 27.163727959697734
47.032456140350874 27.163727959697734
47.09973684210526 27.954659949622165
47.16701754385965 27.163727959697734
47.234298245614035 27.954659949622165
47.30157894736842 27.163727959697734
47.368859649122804 27.954659949622165
47.436140350877196 27.163727959697734
47.50342105263158 27.163727959697734
47.570701754385965 27.163727959697734
47.63798245614035 27.163727959697734
47.705263157894734 27.163727959697734
47.772543859649126 27.163727959697734
47.83982456140351 27.163727959697734
47.907105263157895 27.163727959697734
47.97438596491228 27.163727959697734
48.108947368421056 27.163727959697734
48.17622807017544 27.163727959697734
48.3780701754386 27.163727959697734
48.445350877192986 27.163727959697734
48.57991228070175 27.163727959697734
48.64719298245613 27.163727959697734
48.714473684210525 27.163727959697734
48.78175438596491 27.163727959697734
48.91631578947368 27.163727959697734
48.98359649122806 27.163727959697734
49.050877192982455 25.581863979848865
49.11815789473684 27.163727959697734
49.185438596491224 27.163727959697734
49.32 27.163727959697734
49.45456140350877 27.163727959697734
49.58912280701754 25.581863979848865
49.65640350877193 27.163727959697734
49.723684210526315 25.581863979848865
49.858245614035084 25.581863979848865
49.925526315789476 27.163727959697734
49.99280701754386 25.581863979848865
50.060087719298245 27.163727959697734
50.12736842105263 25.581863979848865
50.194649122807014 25.581863979848865
50.261929824561406 25.581863979848865
50.32921052631579 25.581863979848865
50.396491228070175 25.581863979848865
50.53105263157895 25.581863979848865
50.598333333333336 25.581863979848865
50.66561403508772 25.581863979848865
50.732894736842105 25.581863979848865
50.86745614035088 25.581863979848865
50.934736842105266 25.581863979848865
51.00201754385965 25.581863979848865
51.069298245614036 25.581863979848865
51.13657894736843 25.581863979848865
51.20385964912281 25.581863979848865
51.338421052631574 25.581863979848865
51.40570175438596 25.581863979848865
51.47298245614034 25.581863979848865
51.540263157894735 25.581863979848865
51.60754385964912 25.581863979848865
51.674824561403504 25.581863979848865
51.74210526315789 24.790931989924434
51.80938596491228 25.581863979848865
51.876666666666665 25.581863979848865
51.94394736842105 25.581863979848865
52.011228070175434 25.581863979848865
52.07850877192982 25.581863979848865
52.14578947368421 25.581863979848865
52.213070175438595 25.581863979848865
52.28035087719298 25.581863979848865
52.347631578947365 25.581863979848865
52.414912280701756 25.581863979848865
52.48219298245614 25.581863979848865
52.549473684210525 25.581863979848865
52.61675438596491 25.581863979848865
52.684035087719295 25.581863979848865
52.751315789473686 25.581863979848865
52.81859649122807 25.581863979848865
52.885877192982456 27.163727959697734
52.95315789473684 25.581863979848865
53.020438596491225 25.581863979848865
53.08771929824562 25.581863979848865
53.155 25.581863979848865
53.222280701754386 25.581863979848865
53.28956140350877 25.581863979848865
53.35684210526316 25.581863979848865
53.42412280701755 25.581863979848865
53.49140350877193 25.581863979848865
53.558684210526316 25.581863979848865
53.6259649122807 25.581863979848865
53.69324561403509 25.581863979848865
53.76052631578948 25.581863979848865
53.82780701754386 25.581863979848865
53.895087719298246 25.581863979848865
53.96236842105264 25.581863979848865
54.029649122807015 25.581863979848865
54.0969298245614 25.581863979848865
54.164210526315784 25.581863979848865
54.23149122807017 25.581863979848865
54.298771929824554 25.581863979848865
54.366052631578945 25.581863979848865
54.500614035087715 25.581863979848865
54.5678947368421 25.581863979848865
54.63517543859649 25.581863979848865
54.702456140350876 25.581863979848865
54.76973684210526 25.581863979848865
54.90429824561403 25.581863979848865
54.97157894736842 25.581863979848865
55.038859649122806 25.581863979848865
55.10614035087719 25.581863979848865
55.173421052631575 25.581863979848865
55.24070175438597 25.581863979848865
55.30798245614035 25.581863979848865
55.375263157894736 25.581863979848865
55.44254385964912 25.581863979848865
55.509824561403505 25.581863979848865
55.5771052631579 25.581863979848865
55.64438596491228 27.163727959697734
55.84622807017544 25.581863979848865
55.98078947368421 27.163727959697734
56.048070175438596 25.581863979848865
56.24991228070176 27.163727959697734
56.31719298245614 27.163727959697734
56.45175438596492 27.163727959697734
56.58631578947369 27.163727959697734
56.65359649122807 27.954659949622165
56.72087719298245 27.163727959697734
56.788157894736834 27.163727959697734
56.855438596491226 28.7455919395466
56.92271929824561 27.163727959697734
56.989999999999995 27.954659949622165
57.05728070175438 27.954659949622165
57.12456140350877 28.7455919395466
57.191842105263156 27.954659949622165
57.25912280701754 28.7455919395466
57.326403508771925 27.954659949622165
57.39368421052631 28.7455919395466
57.4609649122807 28.7455919395466
57.528245614035086 28.7455919395466
57.59552631578947 28.7455919395466
57.73008771929825 30.327455919395465
57.79736842105263 30.327455919395465
57.864649122807016 30.327455919395465
57.9319298245614 30.327455919395465
57.999210526315785 30.327455919395465
58.06649122807018 30.327455919395465
58.13377192982456 31.1183879093199
58.201052631578946 31.1183879093199
58.26833333333333 31.1183879093199
58.33561403508772 31.1183879093199
58.40289473684211 31.1183879093199
58.47017543859649 31.909319899244334
58.537456140350876 32.70025188916877
58.60473684210526 33.4911838790932
58.67201754385965 33.4911838790932
58.73929824561404 33.4911838790932
58.80657894736842 35.8639798488665
58.87385964912281 36.65491183879093
58.9411403508772 35.8639798488665
59.00842105263158 36.65491183879093
59.07570175438597 36.65491183879093
59.14298245614035 37.44584382871537
59.21026315789474 36.65491183879093
59.27754385964913 36.65491183879093
59.34482456140351 38.2367758186398
59.4121052631579 40.6095717884131
59.479385964912275 40.6095717884131
59.54666666666666 40.6095717884131
59.61394736842105 41.40050377833753
59.681228070175436 41.40050377833753
59.74850877192982 41.40050377833753
59.815789473684205 42.9823677581864
59.88307017543859 42.9823677581864
59.95035087719298 43.77329974811083
60.017631578947366 44.56423173803526
60.08491228070175 45.3551637279597
60.152192982456135 46.14609571788413
60.21947368421053 46.14609571788413
60.28675438596491 46.93702770780857
60.354035087719296 47.727959697733
60.42131578947368 49.30982367758186
60.488596491228066 48.51889168765743
60.55587719298246 50.10075566750629
60.62315789473684 50.89168765743074
60.69043859649123 50.10075566750629
60.75771929824561 50.89168765743074
60.89228070175439 52.4735516372796
60.95956140350877 51.68261964735517
61.02684210526316 51.68261964735517
61.09412280701754 52.4735516372796
61.16140350877193 53.26448362720403
61.22868421052632 51.68261964735517
61.2959649122807 50.89168765743074
61.36324561403509 50.89168765743074
61.43052631578947 52.4735516372796
61.49780701754386 50.89168765743074
61.56508771929825 50.89168765743074
61.63236842105263 50.10075566750629
61.69964912280702 47.727959697733
61.76692982456141 46.93702770780857
61.83421052631579 46.14609571788413
61.90149122807018 46.14609571788413
61.96877192982456 44.56423173803526
62.03605263157895 44.56423173803526
62.10333333333334 44.56423173803526
62.17061403508772 42.9823677581864
62.2378947368421 41.40050377833753
62.305175438596486 39.81863979848867
62.37245614035087 39.02770780856423
62.43973684210526 38.2367758186398
62.50701754385965 39.02770780856423
62.57429824561403 38.2367758186398
62.641578947368416 36.65491183879093
62.7088596491228 35.8639798488665
62.77614035087719 35.07304785894206
62.84342105263158 34.28211586901763
62.91070175438596 33.4911838790932
62.977982456140346 32.70025188916877
63.04526315789474 32.70025188916877
63.11254385964912 31.909319899244334
63.17982456140351 31.1183879093199
63.24710526315789 31.909319899244334
63.314385964912276 31.1183879093199
63.38166666666667 30.327455919395465
63.44894736842105 31.1183879093199
63.51622807017544 31.1183879093199
63.58350877192982 29.53652392947103
63.65078947368421 29.53652392947103
63.7180701754386 29.53652392947103
63.78535087719298 28.7455919395466
63.85263157894737 28.7455919395466
63.91991228070175 27.954659949622165
63.98719298245614 28.7455919395466
64.12175438596492 28.7455919395466
64.1890350877193 27.954659949622165
64.25631578947369 27.954659949622165
64.32359649122807 27.163727959697734
64.39087719298246 27.163727959697734
64.45815789473684 27.163727959697734
64.52543859649123 27.163727959697734
64.59271929824563 27.163727959697734
64.79456140350878 25.581863979848865
64.86184210526316 25.581863979848865
64.92912280701755 25.581863979848865
64.99640350877193 25.581863979848865
65.1309649122807 25.581863979848865
65.19824561403509 25.581863979848865
65.26552631578947 25.581863979848865
65.33280701754386 25.581863979848865
65.40008771929824 25.581863979848865
65.46736842105263 25.581863979848865
65.53464912280702 25.581863979848865
65.60192982456141 25.581863979848865
65.6692105263158 25.581863979848865
65.73649122807018 25.581863979848865
65.80377192982456 25.581863979848865
65.87105263157895 25.581863979848865
65.93833333333333 24.790931989924434
66.00561403508772 25.581863979848865
66.0728947368421 25.581863979848865
66.1401754385965 25.581863979848865
66.20745614035089 24.790931989924434
66.27473684210527 24.790931989924434
66.34201754385965 25.581863979848865
66.40929824561404 24.790931989924434
66.47657894736842 25.581863979848865
66.54385964912281 24.790931989924434
66.61114035087719 24.790931989924434
66.67842105263158 24.790931989924434
66.74570175438598 24.790931989924434
66.81298245614036 24.790931989924434
66.88026315789475 24.790931989924434
66.94754385964913 25.581863979848865
67.01482456140351 24.790931989924434
67.0821052631579 24.790931989924434
67.14938596491228 24.790931989924434
67.21666666666667 24.790931989924434
67.35122807017544 24.0
67.41850877192982 24.790931989924434
67.4857894736842 24.790931989924434
67.5530701754386 24.790931989924434
67.62035087719299 24.790931989924434
67.68763157894736 24.790931989924434
67.75491228070175 24.790931989924434
67.82219298245613 24.790931989924434
67.88947368421053 24.790931989924434
67.95675438596491 24.790931989924434
68.0240350877193 24.790931989924434
68.09131578947368 24.790931989924434
68.15859649122807 24.790931989924434
68.22587719298245 24.0
68.29315789473684 24.790931989924434
68.36043859649122 24.0
68.4277192982456 24.790931989924434
68.495 24.0
68.56228070175439 24.790931989924434
68.62956140350877 24.790931989924434
68.69684210526316 24.790931989924434
68.76412280701754 24.0
68.83140350877193 24.790931989924434
68.89868421052631 24.790931989924434
68.9659649122807 24.790931989924434
69.03324561403508 24.0
69.10052631578948 24.790931989924434
69.16780701754386 24.0
69.23508771929825 24.790931989924434
69.30236842105263 24.790931989924434
69.36964912280702 24.790931989924434
69.4369298245614 25.581863979848865
69.50421052631579 24.790931989924434
69.57149122807017 24.790931989924434
69.63877192982456 24.790931989924434
69.70605263157896 24.0
69.77333333333334 24.790931989924434
69.84061403508773 24.790931989924434
69.90789473684211 24.0
69.9751754385965 24.0
70.04245614035088 24.790931989924434
70.10973684210526 24.790931989924434
70.17701754385965 24.790931989924434
70.24429824561403 24.0
70.31157894736843 24.790931989924434
70.37885964912282 24.790931989924434
70.51342105263157 24.0
70.58070175438596 24.790931989924434
70.64798245614034 24.0
70.71526315789474 24.790931989924434
70.78254385964912 24.790931989924434
70.84982456140351 24.790931989924434
70.9171052631579 24.790931989924434
70.98438596491228 24.790931989924434
71.05166666666666 24.0
71.11894736842105 24.790931989924434
71.18622807017543 24.790931989924434
71.25350877192982 24.790931989924434
71.32078947368421 25.581863979848865
71.3880701754386 24.790931989924434
71.45535087719298 24.790931989924434
71.52263157894737 24.790931989924434
71.58991228070175 24.0
71.65719298245614 24.790931989924434
71.72447368421052 25.581863979848865
71.79175438596491 24.790931989924434
71.85903508771929 24.790931989924434
71.92631578947369 24.790931989924434
71.99359649122808 24.790931989924434
72.06087719298246 25.581863979848865
72.12815789473684 24.790931989924434
72.19543859649123 24.790931989924434
72.26271929824561 24.0
72.33 24.790931989924434
72.39728070175438 24.790931989924434
72.46456140350877 25.581863979848865
72.53184210526317 24.790931989924434
72.59912280701755 24.790931989924434
72.66640350877194 25.581863979848865
72.73368421052632 25.581863979848865
72.8009649122807 25.581863979848865
72.86824561403509 24.790931989924434
72.93552631578947 24.790931989924434
73.00280701754386 25.581863979848865
73.07008771929824 25.581863979848865
73.13736842105264 25.581863979848865
73.20464912280701 25.581863979848865
73.2719298245614 25.581863979848865
73.33921052631578 25.581863979848865
73.40649122807017 25.581863979848865
73.47377192982455 25.581863979848865
73.54105263157895 25.581863979848865
73.60833333333333 25.581863979848865
73.7428947368421 25.581863979848865
73.81017543859649 25.581863979848865
73.94473684210526 27.163727959697734
74.01201754385964 25.581863979848865
74.07929824561403 25.581863979848865
74.14657894736843 27.163727959697734
74.2811403508772 27.163727959697734
74.34842105263158 27.954659949622165
74.41570175438596 27.163727959697734
74.48298245614035 27.954659949622165
74.55026315789473 27.163727959697734
74.61754385964912 27.954659949622165
74.6848245614035 27.954659949622165
74.7521052631579 28.7455919395466
74.81938596491229 28.7455919395466
74.88666666666667 29.53652392947103
74.95394736842105 28.7455919395466
75.02122807017544 29.53652392947103
75.08850877192982 29.53652392947103
75.15578947368421 31.1183879093199
75.2230701754386 31.1183879093199
75.29035087719298 31.1183879093199
75.35763157894738 31.909319899244334
75.42491228070176 32.70025188916877
75.49219298245615 33.4911838790932
75.55947368421053 34.28211586901763
75.62675438596492 35.07304785894206
75.6940350877193 35.07304785894206
75.76131578947368 35.8639798488665
75.82859649122807 37.44584382871537
75.89587719298245 38.2367758186398
75.96315789473684 39.02770780856423
76.03043859649122 40.6095717884131
76.09771929824561 41.40050377833753
76.16499999999999 43.77329974811083
76.23228070175438 44.56423173803526
76.29956140350878 45.3551637279597
76.36684210526316 47.727959697733
76.43412280701754 50.89168765743074
76.50140350877193 52.4735516372796
76.56868421052631 52.4735516372796
76.6359649122807 56.42821158690176
76.70324561403508 57.2191435768262
76.77052631578947 60.38287153652393
76.90508771929825 63.54659949622166
76.97236842105264 65.12846347607052
77.03964912280702 65.91939546599497
77.1069298245614 64.3375314861461
77.17421052631579 66.7103274559194
77.24149122807017 66.7103274559194
77.30877192982456 65.12846347607052
77.37605263157894 63.54659949622166
77.44333333333333 62.75566750629723
77.51061403508773 60.38287153652393
77.57789473684211 56.42821158690176
77.6451754385965 57.2191435768262
77.71245614035088 54.05541561712846
77.77973684210527 51.68261964735517
77.84701754385965 50.10075566750629
77.91429824561403 47.727959697733
77.98157894736842 47.727959697733
78.0488596491228 44.56423173803526
78.1161403508772 41.40050377833753
78.18342105263159 40.6095717884131
78.25070175438597 39.81863979848867
78.31798245614036 39.02770780856423
78.38526315789474 37.44584382871537
78.45254385964913 35.8639798488665
78.51982456140351 36.65491183879093
78.5871052631579 34.28211586901763
78.65438596491228 33.4911838790932
78.72166666666666 32.70025188916877
78.78894736842105 31.909319899244334
78.85622807017543 31.909319899244334
78.92350877192982 31.909319899244334
78.9907894736842 31.1183879093199
79.05807017543859 31.1183879093199
79.12535087719299 30.327455919395465
79.19263157894737 30.327455919395465
79.25991228070176 29.53652392947103
79.32719298245614 30.327455919395465
79.39447368421052 30.327455919395465
79.46175438596491 27.954659949622165
79.5290350877193 28.7455919395466
79.59631578947368 27.954659949622165
79.66359649122806 28.7455919395466
79.73087719298246 27.954659949622165
79.79815789473685 27.954659949622165
79.86543859649123 27.163727959697734
79.93271929824562 27.163727959697734
